Time[ps]      Etot[eV]     Epot[eV]     Ekin[eV]    T[K]
0.0000         -6786.96     -6786.96         0.00     0.0
0.0500         -6770.17     -6782.88        12.71    96.1
0.1000         -6755.04     -6775.18        20.13   152.3
0.1500         -6744.16     -6769.15        24.99   189.0
0.2000         -6734.60     -6748.20        13.60   102.9
0.2500         -6727.42     -6762.68        35.26   266.6
0.3000         -6721.73     -6756.38        34.65   262.0
0.3500         -6717.79     -6755.90        38.11   288.2
0.4000         -6714.82     -6746.52        31.70   239.8
0.4500         -6711.42     -6756.60        45.18   341.6
0.5000         -6709.34     -6740.41        31.07   235.0
0.5500         -6708.61     -6752.88        44.27   334.8
0.6000         -6706.32     -6746.23        39.92   301.9
0.6500         -6705.47     -6748.75        43.27   327.3
0.7000         -6704.79     -6742.40        37.61   284.4
0.7500         -6704.92     -6750.62        45.70   345.6
0.8000         -6703.94     -6746.29        42.35   320.2
0.8500         -6703.92     -6744.92        41.01   310.1
0.9000         -6703.85     -6746.62        42.78   323.5
0.9500         -6703.55     -6750.79        47.24   357.3
1.0000         -6703.37     -6742.84        39.47   298.5
1.0500         -6703.43     -6746.31        42.88   324.3
1.1000         -6703.21     -6747.61        44.40   335.8
1.1500         -6702.98     -6745.98        43.01   325.2
1.2000         -6702.97     -6744.44        41.47   313.6
1.2500         -6703.16     -6747.51        44.35   335.4
1.3000         -6702.64     -6748.36        45.72   345.7
1.3500         -6702.95     -6745.18        42.22   319.3
1.4000         -6703.10     -6746.86        43.77   331.0
1.4500         -6702.82     -6747.02        44.20   334.3
1.5000         -6702.68     -6744.33        41.64   314.9
1.5500         -6702.98     -6746.82        43.84   331.5
1.6000         -6702.86     -6745.39        42.54   321.7
1.6500         -6702.83     -6748.16        45.33   342.8
1.7000         -6702.99     -6742.31        39.32   297.4
1.7500         -6703.10     -6745.71        42.61   322.3
1.8000         -6702.73     -6747.97        45.24   342.1
1.8500         -6702.63     -6745.24        42.61   322.2
1.9000         -6702.80     -6745.58        42.78   323.5
1.9500         -6702.73     -6748.03        45.31   342.6
2.0000         -6702.63     -6745.85        43.22   326.9
2.0500         -6702.91     -6745.88        42.97   324.9
2.1000         -6703.00     -6745.06        42.06   318.1
2.1500         -6702.94     -6745.48        42.54   321.7
2.2000         -6702.71     -6746.03        43.32   327.6
2.2500         -6703.07     -6744.40        41.32   312.5
2.3000         -6702.79     -6746.67        43.88   331.9
2.3500         -6702.78     -6745.28        42.51   321.5
2.4000         -6703.14     -6745.86        42.72   323.1
2.4500         -6702.92     -6746.19        43.27   327.3
2.5000         -6702.86     -6744.20        41.34   312.6
2.5500         -6703.05     -6746.12        43.07   325.7
2.6000         -6702.95     -6745.31        42.36   320.3
2.6500         -6702.82     -6746.55        43.74   330.8
2.7000         -6702.88     -6746.01        43.13   326.2
2.7500         -6702.87     -6746.22        43.35   327.8
2.8000         -6703.01     -6746.70        43.69   330.4
2.8500         -6702.60     -6746.00        43.40   328.2
2.9000         -6703.00     -6744.35        41.35   312.7
2.9500         -6702.91     -6746.42        43.52   329.1
3.0000         -6702.77     -6743.92        41.15   311.2
3.0500         -6702.99     -6746.23        43.24   327.0
3.1000         -6703.22     -6745.88        42.66   322.6
3.1500         -6702.69     -6747.98        45.29   342.5
3.2000         -6702.92     -6745.33        42.41   320.7
3.2500         -6703.01     -6744.86        41.85   316.5
3.3000         -6702.83     -6746.56        43.72   330.7
3.3500         -6702.83     -6745.56        42.73   323.2
3.4000         -6702.94     -6745.88        42.94   324.7
3.4500         -6702.76     -6747.81        45.05   340.7
3.5000         -6702.78     -6748.78        46.00   347.9
3.5500         -6702.88     -6743.91        41.02   310.2
3.6000         -6702.95     -6747.01        44.07   333.3
3.6500         -6702.90     -6747.75        44.85   339.2
3.7000         -6702.87     -6744.58        41.71   315.4
3.7500         -6703.11     -6747.73        44.62   337.4
3.8000         -6703.14     -6747.17        44.03   333.0
3.8500         -6702.66     -6748.65        45.98   347.7
3.9000         -6703.04     -6744.54        41.49   313.8
3.9500         -6702.77     -6746.76        43.99   332.7
4.0000         -6702.93     -6748.49        45.56   344.6
4.0500         -6702.73     -6745.77        43.04   325.5
4.1000         -6703.12     -6747.45        44.33   335.3
4.1500         -6703.00     -6746.81        43.81   331.3
4.2000         -6702.83     -6746.07        43.24   327.0
4.2500         -6702.89     -6745.83        42.94   324.8
4.3000         -6702.86     -6749.37        46.50   351.7
4.3500         -6702.62     -6746.66        44.03   333.0
4.4000         -6703.03     -6745.90        42.87   324.2
4.4500         -6702.93     -6747.10        44.17   334.0
4.5000         -6702.89     -6746.59        43.70   330.5
4.5500         -6702.71     -6746.68        43.97   332.5
4.6000         -6702.94     -6745.79        42.85   324.0
4.6500         -6702.89     -6746.81        43.92   332.1
4.7000         -6702.72     -6746.22        43.51   329.0
4.7500         -6702.73     -6747.07        44.34   335.3
4.8000         -6702.78     -6745.63        42.85   324.0
4.8500         -6702.74     -6746.73        43.99   332.7
4.9000         -6702.97     -6745.48        42.51   321.5
4.9500         -6702.57     -6745.99        43.43   328.4
5.0000         -6702.82     -6746.77        43.95   332.4
5.0500         -6702.71     -6745.15        42.43   320.9
5.1000         -6702.89     -6745.92        43.03   325.4
5.1500         -6702.73     -6747.31        44.58   337.1
5.2000         -6702.92     -6745.99        43.07   325.7
5.2500         -6702.83     -6745.11        42.28   319.7
5.3000         -6702.90     -6745.13        42.23   319.3
5.3500         -6702.84     -6747.45        44.61   337.4
5.4000         -6702.72     -6745.45        42.73   323.2
5.4500         -6702.71     -6746.16        43.45   328.6
5.5000         -6702.84     -6747.24        44.41   335.8
5.5500         -6702.76     -6745.43        42.68   322.7
5.6000         -6702.82     -6746.07        43.25   327.1
5.6500         -6702.85     -6746.67        43.82   331.4
5.7000         -6702.68     -6747.06        44.38   335.6
5.7500         -6702.80     -6745.38        42.58   322.0
5.8000         -6703.03     -6746.07        43.04   325.5
5.8500         -6703.02     -6745.27        42.26   319.6
5.9000         -6702.87     -6746.59        43.73   330.7
5.9500         -6703.01     -6746.69        43.67   330.3
6.0000         -6702.94     -6746.06        43.12   326.1
6.0500         -6702.86     -6746.79        43.94   332.3
6.1000         -6702.86     -6746.36        43.51   329.0
6.1500         -6702.79     -6746.91        44.12   333.7
6.2000         -6702.89     -6746.24        43.35   327.8
6.2500         -6703.01     -6745.65        42.63   322.4
6.3000         -6702.71     -6746.42        43.71   330.5
6.3500         -6703.00     -6746.51        43.51   329.0
6.4000         -6702.75     -6745.38        42.63   322.4
6.4500         -6702.95     -6748.25        45.30   342.6
6.5000         -6702.91     -6746.08        43.18   326.5
6.5500         -6702.78     -6746.28        43.50   329.0
6.6000         -6702.66     -6746.15        43.50   328.9
6.6500         -6702.95     -6745.65        42.69   322.9
6.7000         -6702.74     -6746.17        43.43   328.4
6.7500         -6702.92     -6747.83        44.91   339.7
6.8000         -6702.88     -6745.52        42.64   322.4
6.8500         -6702.67     -6746.69        44.02   332.9
6.9000         -6702.72     -6746.21        43.50   328.9
6.9500         -6702.87     -6745.62        42.75   323.3
7.0000         -6702.95     -6746.04        43.09   325.9
7.0500         -6702.93     -6746.79        43.87   331.7
7.1000         -6702.88     -6744.88        42.01   317.7
7.1500         -6702.84     -6746.92        44.07   333.3
7.2000         -6702.72     -6745.64        42.92   324.6
7.2500         -6702.75     -6746.11        43.37   328.0
7.3000         -6702.94     -6746.76        43.81   331.3
7.3500         -6702.85     -6745.92        43.06   325.7
7.4000         -6702.94     -6746.90        43.96   332.5
7.4500         -6702.76     -6746.58        43.82   331.4
7.5000         -6702.79     -6747.29        44.50   336.5
7.5500         -6702.86     -6745.71        42.86   324.1
7.6000         -6702.98     -6745.73        42.75   323.3
7.6500         -6702.87     -6746.46        43.59   329.6
7.7000         -6702.87     -6746.93        44.06   333.2
7.7500         -6702.95     -6746.57        43.62   329.9
7.8000         -6703.04     -6746.48        43.44   328.5
7.8500         -6702.75     -6745.73        42.97   325.0
7.9000         -6702.79     -6746.07        43.28   327.3
7.9500         -6702.89     -6745.92        43.03   325.4
8.0000         -6702.85     -6745.31        42.46   321.1
8.0500         -6702.77     -6746.53        43.75   330.9
8.1000         -6702.87     -6745.37        42.50   321.4
8.1500         -6702.76     -6747.62        44.87   339.3
8.2000         -6702.93     -6746.07        43.15   326.3
8.2500         -6702.76     -6747.33        44.57   337.0
8.3000         -6702.95     -6745.68        42.72   323.1
8.3500         -6702.93     -6747.03        44.10   333.5
8.4000         -6702.95     -6745.82        42.87   324.2
8.4500         -6702.92     -6748.40        45.47   343.9
8.5000         -6703.00     -6746.17        43.16   326.4
8.5500         -6702.98     -6745.28        42.30   319.9
8.6000         -6703.03     -6746.24        43.20   326.7
8.6500         -6702.93     -6746.55        43.62   329.8
8.7000         -6702.85     -6747.06        44.21   334.3
8.7500         -6702.84     -6746.70        43.85   331.6
8.8000         -6702.83     -6746.54        43.71   330.5
8.8500         -6703.03     -6746.59        43.56   329.4
8.9000         -6703.05     -6747.04        43.99   332.7
8.9500         -6702.91     -6746.74        43.83   331.4
9.0000         -6702.97     -6745.77        42.80   323.7
9.0500         -6702.98     -6747.49        44.51   336.6
9.1000         -6702.95     -6745.51        42.56   321.9
9.1500         -6702.88     -6745.90        43.02   325.3
9.2000         -6702.92     -6746.12        43.19   326.6
9.2500         -6702.97     -6746.06        43.10   325.9
9.3000         -6702.92     -6745.72        42.81   323.7
9.3500         -6703.05     -6745.25        42.20   319.1
9.4000         -6702.80     -6746.05        43.25   327.1
9.4500         -6702.97     -6747.18        44.21   334.3
9.5000         -6703.03     -6745.36        42.33   320.1
9.5500         -6702.63     -6745.83        43.20   326.7
9.6000         -6702.89     -6747.54        44.65   337.7
9.6500         -6702.63     -6746.09        43.46   328.7
9.7000         -6702.82     -6745.53        42.70   322.9
9.7500         -6702.89     -6746.40        43.51   329.0
9.8000         -6702.81     -6745.74        42.92   324.6
9.8500         -6702.78     -6745.61        42.83   323.9
9.9000         -6702.86     -6747.26        44.40   335.8
9.9500         -6702.92     -6746.10        43.18   326.5
10.0000        -6702.89     -6745.57        42.68   322.7
10.0500        -6702.90     -6747.79        44.89   339.5
10.1000        -6702.92     -6746.96        44.04   333.0
10.1500        -6702.80     -6746.97        44.17   334.1
10.2000        -6702.91     -6745.23        42.31   320.0
10.2500        -6702.87     -6746.50        43.63   329.9
10.3000        -6702.88     -6747.20        44.32   335.2
10.3500        -6702.98     -6746.10        43.12   326.1
10.4000        -6702.70     -6746.17        43.47   328.7
10.4500        -6702.96     -6745.36        42.40   320.6
10.5000        -6702.81     -6747.80        44.99   340.3
10.5500        -6702.85     -6745.00        42.15   318.7
10.6000        -6702.91     -6745.66        42.75   323.3
10.6500        -6702.83     -6746.96        44.13   333.7
10.7000        -6702.92     -6747.12        44.20   334.3
10.7500        -6702.89     -6745.89        42.99   325.1
10.8000        -6702.92     -6745.75        42.83   323.9
10.8500        -6702.95     -6745.95        43.00   325.2
10.9000        -6703.00     -6745.69        42.69   322.8
10.9500        -6702.84     -6745.42        42.58   322.0
11.0000        -6702.80     -6746.96        44.16   333.9
11.0500        -6702.95     -6745.93        42.98   325.0
11.1000        -6702.88     -6746.53        43.65   330.1
11.1500        -6702.85     -6745.37        42.53   321.6
11.2000        -6702.78     -6745.54        42.77   323.4
11.2500        -6702.91     -6747.03        44.13   333.7
11.3000        -6702.93     -6746.22        43.29   327.4
11.3500        -6702.94     -6745.88        42.94   324.8
11.4000        -6702.86     -6745.66        42.81   323.7
11.4500        -6702.81     -6746.54        43.73   330.7
11.5000        -6702.99     -6747.15        44.15   333.9
11.5500        -6702.77     -6745.78        43.01   325.2
11.6000        -6703.02     -6747.35        44.33   335.2
11.6500        -6702.82     -6745.88        43.06   325.6
11.7000        -6702.83     -6746.94        44.11   333.6
11.7500        -6702.85     -6745.32        42.47   321.2
11.8000        -6703.03     -6746.05        43.02   325.3
11.8500        -6702.94     -6746.78        43.84   331.6
11.9000        -6702.84     -6746.37        43.53   329.2
11.9500        -6702.83     -6745.86        43.03   325.4
12.0000        -6702.91     -6745.77        42.86   324.1
12.0500        -6702.92     -6746.03        43.10   326.0
12.1000        -6702.80     -6746.20        43.40   328.2
12.1500        -6702.72     -6746.62        43.90   332.0
12.2000        -6703.02     -6746.87        43.86   331.7
12.2500        -6702.86     -6745.52        42.66   322.6
12.3000        -6702.88     -6747.19        44.31   335.1
12.3500        -6702.87     -6746.58        43.70   330.5
12.4000        -6702.85     -6746.42        43.58   329.5
12.4500        -6702.83     -6747.50        44.67   337.8
12.5000        -6702.87     -6745.90        43.03   325.4
12.5500        -6702.75     -6746.81        44.06   333.2
12.6000        -6702.94     -6745.61        42.67   322.7
12.6500        -6702.79     -6745.45        42.67   322.7
12.7000        -6702.77     -6745.80        43.02   325.4
12.7500        -6702.88     -6745.31        42.43   320.9
12.8000        -6702.81     -6744.93        42.12   318.5
12.8500        -6702.87     -6747.98        45.11   341.2
12.9000        -6702.80     -6746.06        43.26   327.1
12.9500        -6702.98     -6747.20        44.22   334.4
13.0000        -6702.87     -6746.02        43.15   326.3
13.0500        -6702.80     -6746.69        43.88   331.9
13.1000        -6702.79     -6747.18        44.39   335.7
13.1500        -6702.91     -6744.46        41.54   314.2
13.2000        -6702.79     -6745.55        42.76   323.4
13.2500        -6702.77     -6747.05        44.28   334.9
13.3000        -6702.97     -6746.38        43.41   328.3
13.3500        -6702.98     -6745.51        42.53   321.6
13.4000        -6702.87     -6746.42        43.55   329.4
13.4500        -6702.91     -6745.02        42.11   318.5
13.5000        -6702.78     -6746.51        43.73   330.7
13.5500        -6702.99     -6747.00        44.01   332.8
13.6000        -6702.84     -6745.57        42.73   323.1
13.6500        -6702.88     -6746.74        43.85   331.6
13.7000        -6702.91     -6747.66        44.75   338.4
13.7500        -6702.90     -6746.30        43.40   328.2
13.8000        -6702.83     -6746.62        43.79   331.1
13.8500        -6702.85     -6747.90        45.05   340.7
13.9000        -6703.00     -6746.18        43.18   326.5
13.9500        -6702.86     -6745.57        42.71   323.0
14.0000        -6702.85     -6746.10        43.26   327.1
14.0500        -6702.77     -6746.64        43.87   331.8
14.1000        -6702.89     -6746.70        43.81   331.3
14.1500        -6702.86     -6746.56        43.70   330.4
14.2000        -6702.90     -6745.92        43.02   325.3
14.2500        -6702.80     -6746.49        43.69   330.4
14.3000        -6703.02     -6745.14        42.12   318.5
14.3500        -6702.75     -6746.64        43.90   332.0
14.4000        -6702.81     -6745.48        42.67   322.7
14.4500        -6702.94     -6746.05        43.11   326.0
14.5000        -6702.82     -6746.30        43.49   328.9
14.5500        -6702.80     -6744.98        42.18   319.0
14.6000        -6702.91     -6746.47        43.57   329.5
14.6500        -6702.83     -6747.09        44.26   334.7
14.7000        -6702.91     -6745.74        42.82   323.8
14.7500        -6702.86     -6745.78        42.92   324.6
14.8000        -6702.92     -6745.29        42.38   320.5
14.8500        -6702.88     -6745.18        42.29   319.9
14.9000        -6702.98     -6747.12        44.14   333.8
14.9500        -6702.75     -6744.78        42.03   317.9
15.0000        -6702.78     -6746.11        43.33   327.6
15.0500        -6702.84     -6746.43        43.58   329.6
15.1000        -6702.74     -6748.40        45.67   345.3
15.1500        -6702.87     -6746.32        43.44   328.5
15.2000        -6702.80     -6745.68        42.89   324.3
15.2500        -6703.06     -6747.47        44.40   335.8
15.3000        -6702.68     -6745.47        42.79   323.6
15.3500        -6702.77     -6746.08        43.30   327.5
15.4000        -6702.94     -6747.24        44.30   335.0
15.4500        -6702.81     -6746.56        43.75   330.9
15.5000        -6702.94     -6746.04        43.10   325.9
15.5500        -6702.74     -6746.88        44.14   333.8
15.6000        -6702.92     -6747.06        44.14   333.8
15.6500        -6702.99     -6746.08        43.08   325.8
15.7000        -6702.71     -6747.04        44.33   335.2
15.7500        -6702.86     -6746.05        43.19   326.6
15.8000        -6702.96     -6745.33        42.38   320.5
15.8500        -6702.85     -6746.10        43.26   327.1
15.9000        -6702.96     -6745.76        42.80   323.7
15.9500        -6702.73     -6745.28        42.55   321.8
16.0000        -6702.91     -6746.57        43.66   330.2
16.0500        -6702.85     -6746.66        43.81   331.3
16.1000        -6702.86     -6745.29        42.43   320.9
16.1500        -6702.77     -6745.66        42.89   324.4
16.2000        -6702.95     -6746.46        43.50   329.0
16.2500        -6702.93     -6746.74        43.81   331.3
16.3000        -6702.71     -6746.33        43.62   329.9
16.3500        -6702.88     -6746.83        43.95   332.4
16.4000        -6703.03     -6746.36        43.32   327.6
16.4500        -6702.84     -6746.93        44.09   333.4
16.5000        -6702.90     -6746.87        43.97   332.6
16.5500        -6702.82     -6746.54        43.72   330.6
16.6000        -6702.88     -6746.03        43.16   326.4
16.6500        -6702.82     -6746.84        44.02   332.9
16.7000        -6702.85     -6746.24        43.39   328.1
16.7500        -6702.90     -6746.03        43.12   326.1
16.8000        -6702.77     -6745.58        42.81   323.7
16.8500        -6702.77     -6746.56        43.79   331.1
16.9000        -6702.93     -6745.52        42.60   322.1
16.9500        -6702.87     -6746.77        43.89   332.0
17.0000        -6702.86     -6746.40        43.54   329.3
17.0500        -6702.71     -6746.41        43.70   330.5
17.1000        -6702.79     -6745.76        42.97   325.0
